ANGLE           COSINE
 0               1
 0.314159        0.951057
 0.628318        0.809017
 0.942477        0.587786
 1.25664         0.309014
 1.5708         -3.67321E-06
 1.88495        -0.309012
 2.19911        -0.587781
 2.51327        -0.809015
 2.82743        -0.951055
 3.14159        -1
 3.45575        -0.951057
 3.76991        -0.809018
 4.08407        -0.587786
 4.39823        -0.309017
 4.71238        -8.98038E-06
 5.02654         0.309009
 5.3407          0.587779
 5.65486         0.809013
 5.96902         0.951055
 6.28318         1
STOP in line 99

10 (1) LET P = 3.14159
20 (1) PRINT "ANGLE", "COSINE"
30 (1) FOR I = 0 TO 2 STEP 0.1
40 (21) LET A = I * P
50 (21) LET C = COS(A)
60 (21) PRINT A, C
70 (21) NEXT I
99 (1) END

