ANGLE           SINE
 0               0
 0.314159        0.309017
 0.628318        0.587785
 0.942477        0.809017
 1.25664         0.951057
 1.5708          1
 1.88495         0.951058
 2.19911         0.80902
 2.51327         0.587789
 2.82743         0.30902
 3.14159         2.65359E-06
 3.45575        -0.309015
 3.76991        -0.587784
 4.08407        -0.809017
 4.39823        -0.951057
 4.71238        -1
 5.02654        -0.951059
 5.3407         -0.809021
 5.65486        -0.587791
 5.96902        -0.309023
 6.28318        -5.30718E-06
STOP in line 99

10 (1) LET P = 3.14159
20 (1) PRINT "ANGLE", "SINE"
30 F(I) (1) FOR I = 0 TO 2 STEP 0.1
40 F(I) (21) LET A = I * P
50 F(I) (21) LET S = SIN(A)
60 F(I) (21) PRINT A, S
70 F(I) (21) NEXT I
99 (1) END

